#    time[fs]          Re(autocorrel)      Im(autocorrel)      Abs(autocorrel)
     0.00000000        0.03000000000000    0.00000000000000    0.03000000000000
     0.00100000        0.02999163645892   -0.00069715874855    0.02999973812894
     0.00740080        0.02954320596784   -0.00513212453589    0.02998565859057
     0.01395488        0.02838780796102   -0.00954340706798    0.02994902768533
     0.02064683        0.02651361538086   -0.01379672543773    0.02988848328986
     0.02746091        0.02393838486033   -0.01775291300493    0.02980288895195
     0.03438291        0.02071002097501   -0.02127603316694    0.02969132122533
     0.04139997        0.01690562580312   -0.02424011378098    0.02955305906180
     0.04850039        0.01262895960475   -0.02653561435875    0.02938757305554
     0.05567357        0.00800640818898   -0.02807520403008    0.02919451409802
     0.06290991        0.00318166923600   -0.02879847827840    0.02897370135621
     0.07020076       -0.00169053670802   -0.02867532063684    0.02872510971236
     0.07753834       -0.00645136108609   -0.02770771374240    0.02844885693123
     0.08491574       -0.01094492731371   -0.02592991198617    0.02814519087719
     0.09232677       -0.01502523569106   -0.02340699530081    0.02781447710427
     0.09976599       -0.01856250161856   -0.02023192174390    0.02745718710630
     0.10722863       -0.02144860644156   -0.01652127911428    0.02707388745372
     0.11471050       -0.02360140702587   -0.01240999903341    0.02666522997482
     0.12220796       -0.02496772626414   -0.00804533917598    0.02623194307057
     0.12971787       -0.02552492629024   -0.00358046087498    0.02577482419338
     0.13723751       -0.02528104435666    0.00083206836625    0.02529473347417
     0.14476455       -0.02427354425425    0.00504653261779    0.02479258845150
     0.15229700       -0.02256680091091    0.00892979975689    0.02426935984016
     0.15983317       -0.02024849028136    0.01236628307286    0.02372606827337
     0.16737160       -0.01742509939130    0.01526193650445    0.02316378195940
     0.17491109       -0.01421680155266    0.01754714305886    0.02258361520917
     0.18245060       -0.01075195895715    0.01917841438976    0.02198672781297
     0.18998927       -0.00716151919571    0.02013887841100    0.02137432527224
     0.19752638       -0.00357356430226    0.02043758866662    0.02074765992415
     0.20506132       -0.00010825167480    0.02010774164578    0.02010803303455
     0.21259359        0.00312664293160    0.01920393427208    0.01945679797778
     0.22012278        0.00603940748884    0.01779863169957    0.01879536467305
     0.22764856        0.00855717153428    0.01597804399804    0.01812520550699
     0.23517065        0.01062769796133    0.01383762844092    0.01744786304469
     0.24268882        0.01222015618308    0.01147744152503    0.01676495991941
     0.25020291        0.01332489272876    0.00899756164186    0.01607821139717
     0.25771279        0.01395226120160    0.00649379003880    0.01538944124085
     0.26521834        0.01413061463599    0.00405381534474    0.01470060164892
     0.27271949        0.01390359793175    0.00175399685196    0.01401379821478
     0.28021621        0.01332690485398   -0.00034311438430    0.01333132103235
     0.28770845        0.01246468210907   -0.00219043785266    0.01265568323191
     0.29519621        0.01138577171698   -0.00375717294133    0.01198966830660
     0.30267948        0.01015998221691   -0.00502876148173    0.01133638746198
     0.31015828        0.00885456952738   -0.00600605019740    0.01069934766651
     0.31763264        0.00753109029570   -0.00670373659583    0.01008252971175
     0.32510259        0.00624276544501   -0.00714821328930    0.00949047278225
     0.33256816        0.00503246078197   -0.00737495049921    0.00892835686943
     0.34002941        0.00393135661709   -0.00742557362503    0.00840206572882
     0.34748638        0.00295834116149   -0.00734480167345    0.00791820017745
     0.35493912        0.00212012484696   -0.00717741287469    0.00748399525257
     0.36238769        0.00141203648208   -0.00696539619003    0.00710708035066
     0.36983215        0.00081942900503   -0.00674543224700    0.00679502171395
     0.37727256        0.00031959402734   -0.00654682547134    0.00655462158286
     0.38470899       -0.00011593836912   -0.00638998205394    0.00639103374699
     0.39214148       -0.00051885407910   -0.00628549735155    0.00630687612942
     0.39957011       -0.00092141175571   -0.00623388297623    0.00630161063419
     0.40699494       -0.00135385101763   -0.00622592985465    0.00637142959884
     0.41441603       -0.00184199471653   -0.00624367059604    0.00650971328459
     0.42183344       -0.00240517447741   -0.00626187417249    0.00670790074605
     0.42924724       -0.00305458914756   -0.00624997960044    0.00695649048489
     0.43665750       -0.00379218405140   -0.00617435376515    0.00724591638766
     0.44406435       -0.00461010322684   -0.00600074273248    0.00756716361020
     0.45146783       -0.00549073022836   -0.00569678327254    0.00791210832174
     0.45886801       -0.00640733771155   -0.00523443326334    0.00827364902194
     0.46626494       -0.00732529087425   -0.00459218788681    0.00864569696324
     0.47365867       -0.00820374466870   -0.00375696067691    0.00902309149445
     0.48104925       -0.00899774509629   -0.00272552647532    0.00940148453094
     0.48843672       -0.00966062468927   -0.00150544630630    0.00977722036000
     0.49582114       -0.01014656772739   -0.00011542084596    0.01014722418291
     0.50320256       -0.01041321244412    0.00141495180428    0.01050890489132
     0.51058101       -0.01042415576443    0.00304600835250    0.01086007321727
     0.51795654       -0.01015123098484    0.00472940740010    0.01119887426770
     0.52532919       -0.00957643994629    0.00641000865607    0.01152373259911
     0.53269903       -0.00869343335832    0.00802816431643    0.01183330916723
     0.54006611       -0.00750847117776    0.00952228802392    0.01212646315452
     0.54743048       -0.00604080283719    0.01083161315510    0.01240222328696
     0.55479216       -0.00432243444413    0.01189900068700    0.01265976527717
     0.56215119       -0.00239729035719    0.01267365532049    0.01289839293243
     0.56950758       -0.00031979911804    0.01311362392511    0.01311752278157
     0.57686139        0.00184703806216    0.01318795625890    0.01331667150191
     0.58421261        0.00403401361109    0.01287842325300    0.01349544557611
     0.59156129        0.00616841152313    0.01218070832314    0.01365353272864
     0.59890745        0.00817691805464    0.01110501120232    0.01379069478583
     0.60625110        0.00998861618939    0.00967603053929    0.01390676167827
     0.61359226        0.01153793068921    0.00793231972487    0.01400162636291
     0.62093095        0.01276739245851    0.00592503878559    0.01407524048818
     0.62826719        0.01363009883231    0.00371615242495    0.01412761066225
     0.63560098        0.01409175983886    0.00137614916324    0.01415879521272
     0.64293234        0.01413223883569   -0.00101862208146    0.01416890134957
     0.65026128        0.01374651830185   -0.00338888465567    0.01415808266089
     0.65758785        0.01294504032842   -0.00565552539396    0.01412653660973
     0.66491207        0.01175342183228   -0.00774265446193    0.01407450258035
     0.67223397        0.01021154106174   -0.00958059050460    0.01400226000589
     0.67955367        0.00837201975771   -0.01110859482110    0.01391012558257
     0.68687117        0.00629825370292   -0.01227718752418    0.01379845401522
     0.69418645        0.00406194201784   -0.01305009204358    0.01366763605391
     0.70149952        0.00174029884036   -0.01340560760362    0.01351809732455
     0.70881036       -0.00058695045296   -0.01333738831406    0.01335029729536
     0.71611896       -0.00284066203962   -0.01285459888870    0.01316472838355
     0.72342531       -0.00494532603674   -0.01198144383457    0.01296191521229
     0.73072938       -0.00683195171466   -0.01075609367604    0.01274241403342
     0.73803117       -0.00844066688806   -0.00922905723083    0.01250681233909
     0.74533065       -0.00972292598915   -0.00746107204077    0.01225572869266
     0.75262781       -0.01064324169904   -0.00552059710834    0.01198981177070
     0.75992265       -0.01118035815267   -0.00348104234289    0.01170974227790
     0.76721513       -0.01132784924086   -0.00141782229116    0.01141623355021
     0.77450523       -0.01109410746204    0.00059463575824    0.01111003204605
     0.78179292       -0.01050173325634    0.00248578784890    0.01079192024697
     0.78907814       -0.00958636037206    0.00419167941945    0.01046271864949
     0.79636086       -0.00839496920025    0.00565733763236    0.01012328884106
     0.80364103       -0.00698377197394    0.00683875273242    0.00977453885967
     0.81091859       -0.00541575728209    0.00770438444251    0.00941742887292
     0.81819349       -0.00375800416614    0.00823612985066    0.00905297908038
     0.82546566       -0.00207888034901    0.00842972374362    0.00868227999429
     0.83273504       -0.00044524271509    0.00829456432097    0.00830650578463
     0.84000157        0.00108024383305    0.00785298144249    0.00792693158006
     0.84726516        0.00244155986774    0.00713898765080    0.00754495588231
     0.85452575        0.00359145920292    0.00619657338381    0.00716212963491
     0.86178329        0.00449318871288    0.00507762565180    0.00678019373391
     0.86903770        0.00512173588740    0.00383956410242    0.00640112732234
     0.87628896        0.00546456113940    0.00254279864958    0.00602720942216
     0.88353704        0.00552179429910    0.00124811859959    0.00566109638853
     0.89078196        0.00530589782410    0.00001412424488    0.00530591662336
     0.89802378        0.00484082204413   -0.00110519182351    0.00496538085445
     0.90526265        0.00416069934783   -0.00206261483654    0.00464389911894
     0.91249878        0.00330814367334   -0.00281954350624    0.00434668150973
     0.91973251        0.00233223786871   -0.00334742259483    0.00407977591353
     0.92696426        0.00128630298450   -0.00362872474694    0.00384996346177
     0.93419455        0.00022554869569   -0.00365745710246    0.00366440509093
     0.94142396       -0.00079529809357   -0.00343919058278    0.00352994772232
     0.94865365       -0.00172436789545   -0.00299058240612    0.00345210483135
     0.95588411       -0.00251462457498   -0.00233855527772    0.00343397401563
     0.96311562       -0.00312588489889   -0.00151906949963    0.00347544652467
     0.97034833       -0.00352649812363   -0.00057549951143    0.00357314829018
     0.97758231       -0.00369464366457    0.00044328817419    0.00372114178896
     0.98481759       -0.00361920738965    0.00148507535459    0.00391204689876
     0.99205415       -0.00330020080103    0.00249655751681    0.00413813058783
     0.99929201       -0.00274870963859    0.00342563608554    0.00439208233846
     1.00653117       -0.00198638046893    0.00422363992800    0.00466742344434
     1.01377168       -0.00104447334056    0.00484738519890    0.00495863568189
     1.02101359        0.00003747387735    0.00526099097344    0.00526112443439
     1.02825699        0.00121330924107    0.00543738063112    0.00557110648275
     1.03550201        0.00243218670070    0.00535941318741    0.00588547719904
     1.04274878        0.00364066194014    0.00502060465222    0.00620168448377
     1.04999748        0.00478487855598    0.00442541638836    0.00651762019497
     1.05724828        0.00581275722503    0.00358910472954    0.00683153125710
     1.06450139        0.00667610201610    0.00253714318015    0.00714194886889
     1.07175699        0.00733254268679    0.00130424476302    0.00744763295655
     1.07901532        0.00774723942509   -0.00006697305091    0.00774752890277
     1.08627659        0.00789428670951   -0.00152762540296    0.00804073392320
     1.09354103        0.00775776424486   -0.00302443888865    0.00832647204223
     1.10080890        0.00733239742959   -0.00450177819742    0.00860407223379
     1.10808040        0.00662381456790   -0.00590375760962    0.00887295178298
     1.11535573        0.00564838575115   -0.00717636473649    0.00913260490906
     1.12263508        0.00443265458210   -0.00826949959847    0.00938259293870
     1.12991864        0.00301238915516   -0.00913885774837    0.00962253653499
     1.13720672        0.00143126375508   -0.00974759568397    0.00985211335474
     1.14449951       -0.00026067167031   -0.01006767121038    0.01007104529431
     1.15179717       -0.00200880595629   -0.01008090014217    0.01027909767667
     1.15909984       -0.00375593469721   -0.00977962902571    0.01047607700097
     1.16640768       -0.00544430484413   -0.00916701309514    0.01066182837614
     1.17372085       -0.00701766323000   -0.00825689757141    0.01083623341915
     1.18103952       -0.00842323238161   -0.00707331210389    0.01099920851123
     1.18836388       -0.00961354104721   -0.00564960292740    0.01115070332776
     1.19569411       -0.01054804379619   -0.00402724086120    0.01129069957445
     1.20303045       -0.01119447352696   -0.00225435504221    0.01141920987643
     1.21037315       -0.01152988231455   -0.00038405175902    0.01153627677983
     1.21772251       -0.01154133918797    0.00152741546577    0.01164197183714
     1.22507883       -0.01122626750627    0.00342255457824    0.01173639476003
     1.23244248       -0.01059241889397    0.00524455176110    0.01181967263507
     1.23981385       -0.00965749447874    0.00693912777120    0.01189195920914
     1.24719336       -0.00844843677700    0.00845627025638    0.01195343426066
     1.25458144       -0.00700042646152    0.00975178556715    0.01200430307810
     1.26197852       -0.00535562709419    0.01078862228057    0.01204479606655
     1.26938504       -0.00356172764323    0.01153792834049    0.01207516849551
     1.27680144       -0.00167033088830    0.01197981485103    0.01209570044029
     1.28422816        0.00026474821161    0.01210380156382    0.01210669665564
     1.29166584        0.00218924973317    0.01190893054623    0.01210848632774
     1.29911471        0.00405001016641    0.01140358944336    0.01210142283125
     1.30657494        0.00579666697519    0.01060505865305    0.01208588503403
     1.31404668        0.00738314093799    0.00953875065359    0.01206227731988
     1.32153011        0.00876894523367    0.00823718760144    0.01203102905376
     1.32902527        0.00992020875820    0.00673882733626    0.01199259503502
     1.33653218        0.01081051211317    0.00508669913599    0.01194745496954
     1.34405082        0.01142142258192    0.00332695188844    0.01189611292241
     1.35158114        0.01174274530312    0.00150736214441    0.01183909658244
     1.35912309        0.01177249473326   -0.00032414209897    0.01177695632772
     1.36667660        0.01151660164753   -0.00212088926939    0.01171026407904
     1.37424160        0.01098838085953   -0.00383875654987    0.01163961192494
     1.38181799        0.01020779317375   -0.00543730675439    0.01156561049921
     1.38940569        0.00920054149103   -0.00688073853718    0.01148888708906
     1.39700462        0.00799704525048   -0.00813862836180    0.01141008345060
     1.40461469        0.00663133940954   -0.00918645272131    0.01132985330732
     1.41223581        0.00513994395292   -0.01000588908636    0.01124885950875
     1.41986791        0.00356074760088   -0.01058490348634    0.01116777082914
     1.42751091        0.00193194518134   -0.01091764106614    0.01108725839118
     1.43516473        0.00029106189360   -0.01100414303506    0.01100799168614
     1.44282931       -0.00132590800220   -0.01084991855928    0.01093063423472
     1.45050458       -0.00288522797332   -0.01046540486755    0.01085583895882
     1.45819047       -0.00435600487865   -0.00986534950104    0.01078424310188
     1.46588693       -0.00571062733526   -0.00906814825757    0.01071646291383
     1.47359389       -0.00692506254018   -0.00809517111247    0.01065308812155
     1.48131131       -0.00797902297637   -0.00697010456750    0.01059467627345
     1.48903912       -0.00885601983611   -0.00571833401060    0.01054174706556
     1.49677727       -0.00954332393267   -0.00436638384174    0.01049477677406
     1.50452572       -0.01003185719244   -0.00294142671863    0.01045419293253
     1.51228443       -0.01031603846325   -0.00147086670828    0.01042036940079
     1.52005334       -0.01039360637835    0.00001800519923    0.01039362197384
     1.52783241       -0.01026543950748    0.00149829046839    0.01037420467359
     1.53562160       -0.00993539022347    0.00294370929278    0.01036230685191
     1.54342088       -0.00941014389818    0.00432878929072    0.01035805121188
     1.55123020       -0.00869910956158    0.00562903423243    0.01036149282460
     1.55904957       -0.00781433961047    0.00682109420085    0.01037261922779
     1.56687896       -0.00677047991626    0.00788294292271    0.01039135156845
     1.57471835       -0.00558473914933    0.00879408700152    0.01041754661887
     1.58256773       -0.00427685340070    0.00953582310502    0.01045099982305
     1.59042708       -0.00286903603767    0.01009153794500    0.01049144917925
     1.59829638       -0.00138589118483    0.01044705558293    0.01053857982505
     1.60617564        0.00014572922015    0.01059102662577    0.01059202917261
     1.61406485        0.00169694373366    0.01051534796296    0.01065139243561
     1.62196405        0.00323716170992    0.01021559322160    0.01071622885186
     1.62987320        0.00473447340444    0.00969143927268    0.01078606664143
     1.63779229        0.00615618698898    0.00894705825390    0.01086040927599
     1.64572127        0.00746946408433    0.00799144332904    0.01093874125246
     1.65366009        0.00864205695016    0.00683864116906    0.01102053362451
     1.66160873        0.00964313243183    0.00550786320268    0.01110524921635
     1.66956714        0.01044416041553    0.00402345060291    0.01119234745437
     1.67753528        0.01101983815198    0.00241467255157    0.01128128877510
     1.68551311        0.01134901642073    0.00071534339493    0.01137153858942
     1.69350060        0.01141558944880   -0.00103674813048    0.01146257079148
     1.70149771        0.01120930824307   -0.00280059634431    0.01155387083068
     1.70950440        0.01072647641720   -0.00453291220429    0.01164493835881
     1.71752062        0.00997048924250   -0.00618921347501    0.01173528947977
     1.72554632        0.00895218026759   -0.00772504306886    0.01182445863281
     1.73358144        0.00768994546108   -0.00909727905593    0.01191200014338
     1.74162593        0.00620962223921   -0.01026549294502    0.01199748947731
     1.74967973        0.00454410966446   -0.01119330751630    0.01208052423520
     1.75774275        0.00273272617057   -0.01184970203744    0.01216072492491
     1.76581494        0.00082031193975   -0.01221021129167    0.01223773555302
     1.77389627       -0.00114390592596   -0.01225796547580    0.01231122408103
     1.78198672       -0.00310765617193   -0.01198452050858    0.01238088279177
     1.79008642       -0.00501713202539   -0.01139043325978    0.01244642854822
     1.79819576       -0.00681863899044   -0.01048552886159    0.01250760381484
     1.80631531       -0.00846021079643   -0.00928888158931    0.01256417477992
     1.81444498       -0.00989311321715   -0.00782865805899    0.01261592549644
     1.82258453       -0.01107361327538   -0.00614150619288    0.01266266201436
     1.83073359       -0.01196453778404   -0.00427163446728    0.01270421289997
     1.83889172       -0.01253664598222   -0.00226959210239    0.01274042938031
     1.84705841       -0.01276976000483   -0.00019079207997    0.01277118523077
