#    time[fs]          Re(autocorrel)      Im(autocorrel)      Abs(autocorrel)
     0.00000000        0.01000000000000    0.00000000000000    0.01000000000000
     0.00821310        0.00983334628720   -0.00181694700476    0.00999979977909
     0.01642620        0.00933896694212   -0.00357318960186    0.00999919934179
     0.02467664        0.00852908383099   -0.00521714465309    0.00999819330316
     0.03292705        0.00743257547709   -0.00668524528671    0.00999678362105
     0.04117745        0.00608648609474   -0.00792805915496    0.00999497048250
     0.04942784        0.00453628108045   -0.00890377948014    0.00999275412846
     0.05767824        0.00283430282125   -0.00957964101029    0.00999013485237
     0.06592865        0.00103799492683   -0.00993302535018    0.00998711300003
     0.07417908       -0.00079204577208   -0.00995222130661    0.00998368896956
     0.08242952       -0.00259412308725   -0.00963681457348    0.00997986321126
     0.09068000       -0.00430753125739   -0.00899769373846    0.00997563622755
     0.09893050       -0.00587460953633   -0.00805667268514    0.00997100857285
     0.10718105       -0.00724269172277   -0.00684574254405    0.00996598085341
     0.11543165       -0.00836588441099   -0.00540597896542    0.00996055372721
     0.12368229       -0.00920661364310   -0.00378614221406    0.00995472790379
     0.13193300       -0.00973688760046   -0.00204101802075    0.00994850414409
     0.14018377       -0.00993923270909   -0.00022955591010    0.00994188326029
     0.14843461       -0.00980727171710    0.00158713143795    0.00993486611558
     0.15668552       -0.00934592454563    0.00334783957856    0.00992745362399
     0.16493652       -0.00857122559814    0.00499334390908    0.00991964675019
     0.17318761       -0.00750976429473    0.00646840104996    0.00991144650924
     0.18143879       -0.00619776842922    0.00772361205506    0.00990285396637
     0.18969008       -0.00467986208869    0.00871708432288    0.00989387023674
     0.19794147       -0.00300754091341    0.00941583604464    0.00988449648517
     0.20619298       -0.00123741703320    0.00979689589580    0.00987473392589
     0.21444460        0.00057070622990    0.00984806114852    0.00986458382223
     0.22269635        0.00235586411633    0.00956828909101    0.00985404748637
     0.23094824        0.00405799543486    0.00896770918325    0.00984312627902
     0.23920026        0.00561997255457    0.00806725632659    0.00983182160909
     0.24745242        0.00698952746058    0.00689793853179    0.00982013493342
     0.25570474        0.00812100864416    0.00549976469633    0.00980806775637
     0.26395721        0.00897690951040    0.00392036972133    0.00979562162957
     0.27220984        0.00952911690982    0.00221338442025    0.00978279815149
     0.28046264        0.00975983806024    0.00043660624840    0.00976959896711
     0.28871562        0.00966217518435   -0.00134996647516    0.00975602576755
     0.29696878        0.00924032926783   -0.00308616969597    0.00974208028966
     0.30522212        0.00850942702373   -0.00471370876373    0.00972776431568
     0.31347566        0.00749497799757   -0.00617812443589    0.00971307967276
     0.32172940        0.00623198132342   -0.00743062314918    0.00969802823261
     0.32998334        0.00476371351433   -0.00842970977992    0.00968261191107
     0.33823749        0.00314023943764   -0.00914256802537    0.00966683266764
     0.34649186        0.00141669792097   -0.00954614230087    0.00965069250509
     0.35474646       -0.00034857905442   -0.00962788535663    0.00963419346897
     0.36300129       -0.00209604914196   -0.00938614731475    0.00961733764717
     0.37125635       -0.00376697671067   -0.00883019411628    0.00960012716946
     0.37951165       -0.00530541559261   -0.00797985602445    0.00958256420700
     0.38776720       -0.00666009027820   -0.00686481942221    0.00956465097185
     0.39602301       -0.00778611203731   -0.00552358723676    0.00954638971652
     0.40427908       -0.00864647229352   -0.00400214451167    0.00952778273340
     0.41253541       -0.00921326337566   -0.00235237554685    0.00950883235433
     0.42079202       -0.00946858623839   -0.00063028730600    0.00948954095001
     0.42904891       -0.00940511555410    0.00110589982705    0.00946991092954
     0.43730608       -0.00902630435593    0.00279772858944    0.00944994473984
     0.44556354       -0.00834622274976    0.00438848129703    0.00942964486516
     0.45382130       -0.00738903768784    0.00582508911814    0.00940901382646
     0.46207937       -0.00618815298148    0.00705990962992    0.00938805418096
     0.47033775       -0.00478504020857    0.00805231288126    0.00936676852150
     0.47859644       -0.00322780155596    0.00877002296161    0.00934515947600
     0.48685545       -0.00156951457507    0.00919017062769    0.00932322970689
     0.49511479        0.00013358397636    0.00930002257102    0.00930098191054
     0.50337447        0.00182401282112    0.00909736406691    0.00927841881667
     0.51163449        0.00344499393228    0.00859052364567    0.00925554318775
     0.51989485        0.00494236712420    0.00779804065757    0.00923235781843
     0.52815557        0.00626640665181    0.00674798874584    0.00920886553489
     0.53641665        0.00737347865497    0.00547697988211    0.00918506919432
     0.54467809        0.00822748400230    0.00402888436054    0.00916097168420
     0.55293991        0.00880103866760    0.00245331162838    0.00913657592179
     0.56120210        0.00907635294380    0.00080390473427    0.00911188485343
     0.56946468        0.00904578124238   -0.00086349276137    0.00908690145396
     0.57772765        0.00871202557773   -0.00249273454306    0.00906162872607
     0.58599101        0.00808798770232   -0.00402926923208    0.00903606969968
     0.59425478        0.00719627683316   -0.00542197363551    0.00901022743129
     0.60251896        0.00606839158134   -0.00662485972131    0.00898410500337
     0.61078355        0.00474360566982   -0.00759859812714    0.00895770552365
     0.61904856        0.00326759692661   -0.00831180757327    0.00893103212456
     0.62731400        0.00169086754176   -0.00874206779887    0.00890408796249
     0.63557988        0.00006701039211   -0.00887662328723    0.00887687621723
     0.64384620       -0.00154911885285   -0.00871275574973    0.00884940009123
     0.65211296       -0.00310326128546   -0.00825781472967    0.00882166280898
     0.66038017       -0.00454358271936   -0.00752890737221    0.00879366761635
     0.66864785       -0.00582240826040   -0.00655225998462    0.00876541777994
     0.67691599       -0.00689780525399   -0.00536227508760    0.00873691658636
     0.68518460       -0.00773496189287   -0.00400031785809    0.00870816734163
     0.69345368       -0.00830731604970   -0.00251327484476    0.00867917337048
     0.70172326       -0.00859739767958   -0.00095193529931    0.00864993801567
     0.70999332       -0.00859735811005    0.00063074883354    0.00862046463733
     0.71826388       -0.00830917035156    0.00218146447156    0.00859075661231
     0.72653494       -0.00774449584548    0.00364833900791    0.00856081733348
     0.73480651       -0.00692422443099    0.00498268090676    0.00853065020906
     0.74307859       -0.00587770536852    0.00614060069707    0.00850025866195
     0.75135120       -0.00464169762976    0.00708445824785    0.00846964612907
     0.75962434       -0.00325907700488    0.00778408848754    0.00843881606066
     0.76789801       -0.00177734557354    0.00821776559443    0.00840777191964
     0.77617221       -0.00024699547466    0.00837287485382    0.00837651718092
     0.78444697        0.00128021651489    0.00824627153005    0.00834505533070
     0.79272228        0.00275302446530    0.00784431688263    0.00831338986585
     0.80099815        0.00412237912879    0.00718259249419    0.00828152429321
     0.80927458        0.00534308586241    0.00628530499527    0.00824946212893
     0.81755159        0.00637529979964    0.00518440369435    0.00821720689780
     0.82582918        0.00718582869587    0.00391844320110    0.00818476213256
     0.83410735        0.00774920078430    0.00253123154451    0.00815213137329
     0.84238611        0.00804846328827    0.00107031125813    0.00811931816669
     0.85066546        0.00807568665074   -0.00041467379429    0.00808632606544
     0.85894543        0.00783215973081   -0.00187366961658    0.00805315862758
     0.86722600        0.00732827182693   -0.00325790354250    0.00801981941578
     0.87550719        0.00658308805334   -0.00452151865983    0.00798631199673
     0.88378900        0.00562363495337   -0.00562309629429    0.00795263994052
     0.89207144        0.00448392293293   -0.00652701590182    0.00791880681991
     0.90035451        0.00320374081164   -0.00720460765575    0.00788481620975
     0.90863823        0.00182726523083   -0.00763506042561    0.00785067168633
     0.91692260        0.00040153358245   -0.00780605646145    0.00781637682671
     0.92520762       -0.00102516665714   -0.00771411361782    0.00778193520813
     0.93349330       -0.00240493692057   -0.00736462604224    0.00774735040733
     0.94177965       -0.00369187911742   -0.00677160456596    0.00771262599997
     0.95006667       -0.00484362544104   -0.00595712821590    0.00767776555996
     0.95835437       -0.00582273533043   -0.00495052797055    0.00764277265889
     0.96664277       -0.00659791346465   -0.00378733278210    0.00760765086537
     0.97493185       -0.00714500915219   -0.00250801568659    0.00757240374446
     0.98322163       -0.00744776525334   -0.00115658426718    0.00753703485702
     0.99151212       -0.00749829356178    0.00022093538498    0.00750154775916
     0.99980333       -0.00729726306461    0.00157806890368    0.00746594600161
     1.00809525       -0.00685379736744    0.00286946440977    0.00743023312911
     1.01638790       -0.00618508747350    0.00405241061908    0.00739441267988
     1.02468128       -0.00531573570498    0.00508825139746    0.00735848818501
     1.03297539       -0.00427685552722    0.00594364985879    0.00732246316785
     1.04127026       -0.00310496008149    0.00659166065207    0.00728634114352
     1.04956587       -0.00184067908527    0.00701257598787    0.00725012561826
     1.05786225       -0.00052734919793    0.00719451896231    0.00721382008894
     1.06615938        0.00079047319741    0.00713376656674    0.00717742804245
     1.07445729        0.00206852569365    0.00683479411273    0.00714095295522
     1.08275598        0.00326432854562    0.00631004233315    0.00710439829260
     1.09105545        0.00433859820795    0.00557941781395    0.00706776750839
     1.09935572        0.00525653864197    0.00466954634846    0.00703106404429
     1.10765678        0.00598896793003    0.00361280698809    0.00699429132937
     1.11595864        0.00651324375263    0.00244618171828    0.00695745277957
     1.12426132        0.00681395847834    0.00120996158318    0.00692055179717
     1.13256481        0.00688338273118   -0.00005364547033    0.00688359177032
     1.14086913        0.00672164504841   -0.00130195689629    0.00684657607251
     1.14917427        0.00633664432081   -0.00249325867078    0.00680950806210
     1.15748026        0.00574370080263   -0.00358820039231    0.00677239108185
     1.16578709        0.00496496028179   -0.00455109566890    0.00673522845843
     1.17409477        0.00402857421396   -0.00535108480920    0.00669802350194
     1.18240330        0.00296768597568   -0.00596312196509    0.00666077950549
     1.19071271        0.00181925963812   -0.00636875523452    0.00662349974471
     1.19902298        0.00062279260632   -0.00655667559483    0.00658618747731
     1.20733413       -0.00058104304743   -0.00652301863847    0.00654884594267
     1.21564616       -0.00175178380413   -0.00627141163968    0.00651147836138
     1.22395909       -0.00285053540731   -0.00581276719639    0.00647408793482
     1.23227291       -0.00384126528413   -0.00516483326876    0.00643667784476
     1.24058763       -0.00469198373067   -0.00435151758234    0.00639925125295
     1.24890327       -0.00537577516981   -0.00340201180911    0.00636181130070
     1.25721983       -0.00587164631203   -0.00234974743690    0.00632436110850
     1.26553731       -0.00616516463483   -0.00123122057728    0.00628690377566
     1.27385572       -0.00624886800943   -0.00008472697491    0.00624944237989
     1.28217507       -0.00612243428157    0.00105094895306    0.00621197997695
     1.29049537       -0.00579260787906    0.00213784617173    0.00617451960030
     1.29881662       -0.00527288878749    0.00314009579077    0.00613706426074
     1.30713883       -0.00458299722521    0.00402510413805    0.00609961694604
     1.31546200       -0.00374813479211    0.00476461115492    0.00606218062065
     1.32378615       -0.00279806951531    0.00533558981381    0.00602475822533
     1.33211128       -0.00176607785362    0.00572095805719    0.00598735267686
     1.34043740       -0.00068778117043    0.00591008145361    0.00594996686770
     1.34876450        0.00040008269453    0.00589905212260    0.00591260366569
     1.35709261        0.00146091042093    0.00569073723692    0.00587526591378
     1.36542173        0.00245946419204    0.00529459830046    0.00583795642970
     1.37375186        0.00336304129214    0.00472629015121    0.00580067800572
     1.38208302        0.00414254353451    0.00400705599125    0.00576343340834
     1.39041520        0.00477341161528    0.00316294145240    0.00572622537805
     1.39874842        0.00523639450175    0.00222385654904    0.00568905662906
     1.40708269        0.00551812993014    0.00122251915852    0.00565192984908
     1.41541800        0.00561151878918    0.00019331725734    0.00561484769903
     1.42375437        0.00551588336847   -0.00082887058136    0.00557781281285
     1.43209180        0.00523690690040   -0.00180985601512    0.00554082779726
     1.44043031        0.00478635926603   -0.00271728314615    0.00550389523155
     1.44876990        0.00418162091605   -0.00352169400853    0.00546701766736
     1.45711057        0.00344502373613   -0.00419748230990    0.00543019762849
     1.46545234        0.00260303354193   -0.00472370465208    0.00539343761070
     1.47379520        0.00168530392859   -0.00508472368664    0.00535674008154
     1.48213918        0.00072363516489   -0.00527066369147    0.00532010748016
     1.49048427       -0.00024912540904   -0.00527766566685    0.00528354221716
     1.49883048       -0.00120020352635   -0.00510793601160    0.00524704667439
     1.50717782       -0.00209800053925   -0.00476958991112    0.00521062320485
     1.51552630       -0.00291314133445   -0.00427629750648    0.00517427413252
     1.52387593       -0.00361943293811   -0.00364674748401    0.00513800175220
     1.53222670       -0.00419470262636   -0.00290394870935    0.00510180832942
     1.54057864       -0.00462148886429   -0.00207439573319    0.00506569610031
     1.54893174       -0.00488756374653   -0.00118712825137    0.00502966727146
     1.55728602       -0.00498627161310   -0.00027271777873    0.00499372401985
     1.56564148       -0.00491667495177    0.00063778319980    0.00495786849274
     1.57399813       -0.00468350534797    0.00151389355754    0.00492210280755
     1.58235598       -0.00429692387684    0.00232672174420    0.00488642905181
     1.59071503       -0.00377210172290    0.00304991595939    0.00485084928308
     1.59907529       -0.00312863774873    0.00366051512960    0.00481536552889
     1.60743678       -0.00238983501834    0.00413967333803    0.00477997978662
     1.61579949       -0.00158186274375    0.00447323503037    0.00474469402354
     1.62416343       -0.00073283362485    0.00465214369753    0.00470951017667
     1.63252862        0.00012817101294    0.00467267262336    0.00467443015282
     1.64089506        0.00097209457837    0.00453647247488    0.00463945582850
     1.64926276        0.00177088322827    0.00425043679055    0.00460458904992
     1.65763173        0.00249841570490    0.00382639257252    0.00456983163295
     1.66600197        0.00313135427634    0.00328062900588    0.00453518536316
     1.67437350        0.00364988918208    0.00263328261780    0.00450065199573
     1.68274631        0.00403835299836    0.00190760178065    0.00446623325555
     1.69112042        0.00428568609109    0.00112911720996    0.00443193083713
     1.69949584        0.00438573964629    0.00032474789473    0.00439774640471
     1.70787257        0.00433740846901   -0.00047812635466    0.00436368159220
     1.71625062        0.00414459162236   -0.00125259389291    0.00432973800324
     1.72463001        0.00381598483679   -0.00197311033938    0.00429591721126
     1.73301073        0.00336471425640   -0.00261633785572    0.00426222075947
     1.74139280        0.00280782631627   -0.00316189714593    0.00422865016096
     1.74977623        0.00216565319091   -0.00359300809622    0.00419520689868
     1.75816102        0.00146107717009   -0.00389699911025    0.00416189242560
     1.76654718        0.00071872038211   -0.00406566994741    0.00412870816466
     1.77493471       -0.00003591159419   -0.00409549806560    0.00409565550894
     1.78332364       -0.00077730256762   -0.00398768392366    0.00406273582167
     1.79171397       -0.00148078526490   -0.00374803622162    0.00402995043633
     1.80010569       -0.00212335870884   -0.00338670346122    0.00399730065677
     1.80849884       -0.00268443647871   -0.00291776331319    0.00396478775725
     1.81689340       -0.00314650165018   -0.00235868591185    0.00393241298256
     1.82528939       -0.00349564775336   -0.00172969121274    0.00390017754814
     1.83368683       -0.00372198927334   -0.00105302381755    0.00386808264017
     1.84208571       -0.00381992989652   -0.00035217109421    0.00383612941569
     1.85048605       -0.00378828171045    0.00034894807159    0.00380431900271
     1.85888785       -0.00363023372038    0.00102679599912    0.00377265250035
     1.86729113       -0.00335317317429    0.00165900291288    0.00374113097896
     1.87569589       -0.00296836811599    0.00222510144737    0.00370975548023
     1.88410214       -0.00249052414927    0.00270718497329    0.00367852701739
     1.89250989       -0.00193723244473    0.00309046873058    0.00364744657529
     1.90091915       -0.00132832942732    0.00336373638644    0.00361651511057
     1.90932993       -0.00068519123943    0.00351965880022    0.00358573355181
     1.91774224       -0.00002998790521    0.00355497632088    0.00355510279971
     1.92615608        0.00061507692304    0.00347054070674    0.00352462372721
     1.93457147        0.00122851469406    0.00327121757552    0.00349429717968
     1.94298841        0.00179026403929    0.00296565500089    0.00346412397507
     1.95140692        0.00228234274196    0.00256592831168    0.00343410490411
     1.95982701        0.00268941855516    0.00208707517500    0.00340424073046
     1.96824867        0.00299928093001    0.00154653852532    0.00337453219090
     1.97667193        0.00320319937204    0.00096353772807    0.00334497999552
     1.98509679        0.00329615822328    0.00035839045463    0.00331558482788
     1.99352327        0.00327696202582   -0.00024819096463    0.00328634734524
     2.00195136        0.00314821010411   -0.00083580447986    0.00325726817873
     2.01038109        0.00291614345697   -0.00138504069196    0.00322834793354
     2.01881245        0.00259037132234   -0.00187811996244    0.00319958718914
     2.02724547        0.00218348872826   -0.00229946349252    0.00317098649948
     2.03568015        0.00171059984237   -0.00263618019348    0.00314254639316
     2.04411649        0.00118876486906   -0.00287845433542    0.00311426737371
     2.05255452        0.00063639052726   -0.00301982258154    0.00308614991975
     2.06099424        0.00007258570703   -0.00305733295936    0.00305819448519
