#    time[fs]          Re(autocorrel)      Im(autocorrel)      Abs(autocorrel)
     0.00000000        1.00000000000000    0.00000000000000    1.00000000000000
     0.00100000        0.99999940664611    0.00000000000000    0.99999940664611
     0.00740080        0.99996749688186    0.00000000000000    0.99996749688186
     0.01395488        0.99988444829552    0.00000000000000    0.99988444829552
     0.02064683        0.99974707610192    0.00000000000000    0.99974707610192
     0.02746091        0.99955263364412    0.00000000000000    0.99955263364412
     0.03438291        0.99929877461595    0.00000000000000    0.99929877461595
     0.04139997        0.99898352174017    0.00000000000000    0.99898352174017
     0.04850039        0.99860523686247    0.00000000000000    0.99860523686247
     0.05567357        0.99816259136373    0.00000000000000    0.99816259136373
     0.06290991        0.99765453654150    0.00000000000000    0.99765453654150
     0.07020076        0.99708027407829    0.00000000000000    0.99708027407829
     0.07753834        0.99643922697899    0.00000000000000    0.99643922697899
     0.08491574        0.99573101147586    0.00000000000000    0.99573101147586
     0.09232677        0.99495541040830    0.00000000000000    0.99495541040830
     0.09976599        0.99411234851767    0.00000000000000    0.99411234851767
     0.10722863        0.99320186998516    0.00000000000000    0.99320186998516
     0.11471050        0.99222411840929    0.00000000000000    0.99222411840929
     0.12220796        0.99117931929017    0.00000000000000    0.99117931929017
     0.12971787        0.99006776497407    0.00000000000000    0.99006776497407
     0.13723751        0.98888980192349    0.00000000000000    0.98888980192349
     0.14476455        0.98764582011648    0.00000000000000    0.98764582011648
     0.15229700        0.98633624434333    0.00000000000000    0.98633624434333
     0.15983317        0.98496152715491    0.00000000000000    0.98496152715491
     0.16737160        0.98352214321981    0.00000000000000    0.98352214321981
     0.17491109        0.98201858486213    0.00000000000000    0.98201858486213
     0.18245060        0.98045135857282    0.00000000000000    0.98045135857282
     0.18998927        0.97882098231314    0.00000000000000    0.97882098231314
     0.19752638        0.97712798345409    0.00000000000000    0.97712798345409
     0.20506132        0.97537289722066    0.00000000000000    0.97537289722066
     0.21259359        0.97355626553265    0.00000000000000    0.97355626553265
     0.22012278        0.97167863615352    0.00000000000000    0.97167863615352
     0.22764856        0.96974056207631    0.00000000000000    0.96974056207631
     0.23517065        0.96774260108999    0.00000000000000    0.96774260108999
     0.24268882        0.96568531548169    0.00000000000000    0.96568531548169
     0.25020291        0.96356927184001    0.00000000000000    0.96356927184001
     0.25771279        0.96139504093235    0.00000000000000    0.96139504093235
     0.26521834        0.95916319763567    0.00000000000000    0.95916319763567
     0.27271949        0.95687432090463    0.00000000000000    0.95687432090463
     0.28021621        0.95452899376536    0.00000000000000    0.95452899376536
     0.28770845        0.95212780332553    0.00000000000000    0.95212780332553
     0.29519621        0.94967134079427    0.00000000000000    0.94967134079427
     0.30267948        0.94716020150663    0.00000000000000    0.94716020150663
     0.31015828        0.94459498494909    0.00000000000000    0.94459498494909
     0.31763264        0.94197629478336    0.00000000000000    0.94197629478336
     0.32510259        0.93930473886653    0.00000000000000    0.93930473886653
     0.33256816        0.93658092926624    0.00000000000000    0.93658092926624
     0.34002941        0.93380548226985    0.00000000000000    0.93380548226985
     0.34748638        0.93097901838714    0.00000000000000    0.93097901838714
     0.35493912        0.92810216234590    0.00000000000000    0.92810216234590
     0.36238769        0.92517554308044    0.00000000000000    0.92517554308044
     0.36983215        0.92219979371278    0.00000000000000    0.92219979371278
     0.37727256        0.91917555152660    0.00000000000000    0.91917555152660
     0.38470899        0.91610345793389    0.00000000000000    0.91610345793389
     0.39214148        0.91298415843469    0.00000000000000    0.91298415843469
     0.39957011        0.90981830256980    0.00000000000000    0.90981830256980
     0.40699494        0.90660654386686    0.00000000000000    0.90660654386686
     0.41441603        0.90334953977996    0.00000000000000    0.90334953977996
     0.42183344        0.90004795162299    0.00000000000000    0.90004795162299
     0.42924724        0.89670244449703    0.00000000000000    0.89670244449703
     0.43665750        0.89331367449130    0.00000000000000    0.89331367449130
     0.44406435        0.88988228758407    0.00000000000000    0.88988228758407
     0.45146783        0.88640895925283    0.00000000000000    0.88640895925283
     0.45886801        0.88289436848942    0.00000000000000    0.88289436848942
     0.46626494        0.87933919764773    0.00000000000000    0.87933919764773
     0.47365867        0.87574413234054    0.00000000000000    0.87574413234054
     0.48104925        0.87210986133248    0.00000000000000    0.87210986133248
     0.48843672        0.86843707642916    0.00000000000000    0.86843707642916
     0.49582114        0.86472647236284    0.00000000000000    0.86472647236284
     0.50320256        0.86097874667485    0.00000000000000    0.86097874667485
     0.51058101        0.85719459959504    0.00000000000000    0.85719459959504
     0.51795654        0.85337473391851    0.00000000000000    0.85337473391851
     0.52532919        0.84951985487995    0.00000000000000    0.84951985487995
     0.53269903        0.84563065230269    0.00000000000000    0.84563065230269
     0.54006611        0.84170782696254    0.00000000000000    0.84170782696254
     0.54743048        0.83775209049046    0.00000000000000    0.83775209049046
     0.55479216        0.83376415645805    0.00000000000000    0.83376415645805
     0.56215119        0.82974474023384    0.00000000000000    0.82974474023384
     0.56950758        0.82569455884760    0.00000000000000    0.82569455884760
     0.57686139        0.82161433085385    0.00000000000000    0.82161433085385
     0.58421261        0.81750477619464    0.00000000000000    0.81750477619464
     0.59156129        0.81336661606181    0.00000000000000    0.81336661606181
     0.59890745        0.80920057275896    0.00000000000000    0.80920057275896
     0.60625110        0.80500736956322    0.00000000000000    0.80500736956322
     0.61359226        0.80078773058703    0.00000000000000    0.80078773058703
     0.62093095        0.79654238064011    0.00000000000000    0.79654238064011
     0.62826719        0.79227204509164    0.00000000000000    0.79227204509164
     0.63560098        0.78797744973297    0.00000000000000    0.78797744973297
     0.64293234        0.78365932064089    0.00000000000000    0.78365932064089
     0.65026128        0.77931838404157    0.00000000000000    0.77931838404157
     0.65758785        0.77495533728980    0.00000000000000    0.77495533728980
     0.66491207        0.77057089832223    0.00000000000000    0.77057089832223
     0.67223397        0.76616577470621    0.00000000000000    0.76616577470621
     0.67955367        0.76174062186814    0.00000000000000    0.76174062186814
     0.68687117        0.75729616350486    0.00000000000000    0.75729616350486
     0.69418645        0.75283312285047    0.00000000000000    0.75283312285047
     0.70149952        0.74835222257376    0.00000000000000    0.74835222257376
     0.70881036        0.74385418466313    0.00000000000000    0.74385418466313
     0.71611896        0.73933973031482    0.00000000000000    0.73933973031482
     0.72342531        0.73480957982507    0.00000000000000    0.73480957982507
     0.73072938        0.73026445248621    0.00000000000000    0.73026445248621
     0.73803117        0.72570506648735    0.00000000000000    0.72570506648735
     0.74533065        0.72113213881979    0.00000000000000    0.72113213881979
     0.75262781        0.71654636754866    0.00000000000000    0.71654636754866
     0.75992265        0.71194846000888    0.00000000000000    0.71194846000888
     0.76721513        0.70733912731273    0.00000000000000    0.70733912731273
     0.77450523        0.70271907187488    0.00000000000000    0.70271907187488
     0.78179292        0.69808900383448    0.00000000000000    0.69808900383448
     0.78907814        0.69344963160818    0.00000000000000    0.69344963160818
     0.79636086        0.68880165670008    0.00000000000000    0.68880165670008
     0.80364103        0.68414578426729    0.00000000000000    0.68414578426729
     0.81091859        0.67948271751119    0.00000000000000    0.67948271751119
     0.81819349        0.67481315748806    0.00000000000000    0.67481315748806
     0.82546566        0.67013780282707    0.00000000000000    0.67013780282707
     0.83273504        0.66545734930927    0.00000000000000    0.66545734930927
     0.84000157        0.66077248919443    0.00000000000000    0.66077248919443
     0.84726516        0.65608391014047    0.00000000000000    0.65608391014047
     0.85452575        0.65139229416580    0.00000000000000    0.65139229416580
     0.86178329        0.64669831534689    0.00000000000000    0.64669831534689
     0.86903770        0.64200263678297    0.00000000000000    0.64200263678297
     0.87628896        0.63730590627641    0.00000000000000    0.63730590627641
     0.88353704        0.63260875034739    0.00000000000000    0.63260875034739
     0.89078196        0.62791176623941    0.00000000000000    0.62791176623941
     0.89802378        0.62321551179592    0.00000000000000    0.62321551179592
     0.90526265        0.61852049364740    0.00000000000000    0.61852049364740
     0.91249878        0.61382715520066    0.00000000000000    0.61382715520066
     0.91973251        0.60913586745847    0.00000000000000    0.60913586745847
     0.92696426        0.60444692721618    0.00000000000000    0.60444692721618
     0.93419455        0.59976056741621    0.00000000000000    0.59976056741621
     0.94142396        0.59507698178637    0.00000000000000    0.59507698178637
     0.94865365        0.59039597928328    0.00000000000000    0.59039597928328
     0.95588411        0.58571778784553    0.00000000000000    0.58571778784553
     0.96311562        0.58104278606736    0.00000000000000    0.58104278606736
     0.97034833        0.57637141911029    0.00000000000000    0.57637141911029
     0.97758231        0.57170418041732    0.00000000000000    0.57170418041732
     0.98481759        0.56704159099438    0.00000000000000    0.56704159099438
     0.99205415        0.56238418083840    0.00000000000000    0.56238418083840
     0.99929201        0.55773247418872    0.00000000000000    0.55773247418872
     1.00653117        0.55308698079719    0.00000000000000    0.55308698079719
     1.01377168        0.54844819000939    0.00000000000000    0.54844819000939
     1.02101359        0.54381656816975    0.00000000000000    0.54381656816975
     1.02825699        0.53919255815613    0.00000000000000    0.53919255815613
     1.03550201        0.53457658028089    0.00000000000000    0.53457658028089
     1.04274878        0.52996903403064    0.00000000000000    0.52996903403064
     1.04999748        0.52537030027889    0.00000000000000    0.52537030027889
     1.05724828        0.52078074372486    0.00000000000000    0.52078074372486
     1.06450139        0.51620071539346    0.00000000000000    0.51620071539346
     1.07175699        0.51163055508490    0.00000000000000    0.51163055508490
     1.07901532        0.50707059369616    0.00000000000000    0.50707059369616
     1.08627659        0.50252115535733    0.00000000000000    0.50252115535733
     1.09354103        0.49798254142688    0.00000000000000    0.49798254142688
     1.10080890        0.49345505434994    0.00000000000000    0.49345505434994
     1.10808040        0.48893901163219    0.00000000000000    0.48893901163219
     1.11535573        0.48443472997290    0.00000000000000    0.48443472997290
     1.12263508        0.47994252590920    0.00000000000000    0.47994252590920
     1.12991864        0.47546271606132    0.00000000000000    0.47546271606132
     1.13720672        0.47099554082351    0.00000000000000    0.47099554082351
     1.14449951        0.46654130888070    0.00000000000000    0.46654130888070
     1.15179717        0.46210034424141    0.00000000000000    0.46210034424141
     1.15909984        0.45767296805463    0.00000000000000    0.45767296805463
     1.16640768        0.45325949671060    0.00000000000000    0.45325949671060
     1.17372085        0.44886023954520    0.00000000000000    0.44886023954520
     1.18103952        0.44447549623531    0.00000000000000    0.44447549623531
     1.18836388        0.44010555397621    0.00000000000000    0.44010555397621
     1.19569411        0.43575068457747    0.00000000000000    0.43575068457747
     1.20303045        0.43141114166800    0.00000000000000    0.43141114166800
     1.21037315        0.42708715826140    0.00000000000000    0.42708715826140
     1.21772251        0.42277894498853    0.00000000000000    0.42277894498853
     1.22507883        0.41848668934177    0.00000000000000    0.41848668934177
     1.23244248        0.41421055627154    0.00000000000000    0.41421055627154
     1.23981385        0.40995069040985    0.00000000000000    0.40995069040985
     1.24719336        0.40570722005052    0.00000000000000    0.40570722005052
     1.25458144        0.40148026279462    0.00000000000000    0.40148026279462
     1.26197852        0.39726993250281    0.00000000000000    0.39726993250281
     1.26938504        0.39307634694188    0.00000000000000    0.39307634694188
     1.27680144        0.38889962130491    0.00000000000000    0.38889962130491
     1.28422816        0.38473986190893    0.00000000000000    0.38473986190893
     1.29166584        0.38059707596965    0.00000000000000    0.38059707596965
     1.29911471        0.37647149187089    0.00000000000000    0.37647149187089
     1.30657494        0.37236336524499    0.00000000000000    0.37236336524499
     1.31404668        0.36827297298121    0.00000000000000    0.36827297298121
     1.32153011        0.36420055997641    0.00000000000000    0.36420055997641
     1.32902527        0.36014644500545    0.00000000000000    0.36014644500545
     1.33653218        0.35611096041996    0.00000000000000    0.35611096041996
     1.34405082        0.35209444820799    0.00000000000000    0.35209444820799
     1.35158114        0.34809725623561    0.00000000000000    0.34809725623561
     1.35912309        0.34411973494506    0.00000000000000    0.34411973494506
     1.36667660        0.34016223455051    0.00000000000000    0.34016223455051
     1.37424160        0.33622510272546    0.00000000000000    0.33622510272546
     1.38181799        0.33230868274563    0.00000000000000    0.33230868274563
     1.38940569        0.32841331203583    0.00000000000000    0.32841331203583
     1.39700462        0.32453932106352    0.00000000000000    0.32453932106352
     1.40461469        0.32068703252218    0.00000000000000    0.32068703252218
     1.41223581        0.31685676075206    0.00000000000000    0.31685676075206
     1.41986791        0.31304881135146    0.00000000000000    0.31304881135146
     1.42751091        0.30926348093858    0.00000000000000    0.30926348093858
     1.43516473        0.30550105600355    0.00000000000000    0.30550105600355
     1.44282931        0.30176181268731    0.00000000000000    0.30176181268731
     1.45050458        0.29804602019333    0.00000000000000    0.29804602019333
     1.45819047        0.29435393866004    0.00000000000000    0.29435393866004
     1.46588693        0.29068581927676    0.00000000000000    0.29068581927676
     1.47359389        0.28704190441176    0.00000000000000    0.28704190441176
     1.48131131        0.28342242774913    0.00000000000000    0.28342242774913
     1.48903912        0.27982761442539    0.00000000000000    0.27982761442539
     1.49677727        0.27625768115872    0.00000000000000    0.27625768115872
     1.50452572        0.27271283636371    0.00000000000000    0.27271283636371
     1.51228443        0.26919328024543    0.00000000000000    0.26919328024543
     1.52005334        0.26569920486626    0.00000000000000    0.26569920486626
     1.52783241        0.26223079417875    0.00000000000000    0.26223079417875
     1.53562160        0.25878822401749    0.00000000000000    0.25878822401749
     1.54342088        0.25537166204295    0.00000000000000    0.25537166204295
     1.55123020        0.25198126763138    0.00000000000000    0.25198126763138
     1.55904957        0.24861718208339    0.00000000000000    0.24861718208339
     1.56687896        0.24527953848334    0.00000000000000    0.24527953848334
     1.57471835        0.24196847118205    0.00000000000000    0.24196847118205
     1.58256773        0.23868410541798    0.00000000000000    0.23868410541798
     1.59042708        0.23542655737651    0.00000000000000    0.23542655737651
     1.59829638        0.23219593457277    0.00000000000000    0.23219593457277
     1.60617564        0.22899233671844    0.00000000000000    0.22899233671844
     1.61406485        0.22581585701206    0.00000000000000    0.22581585701206
     1.62196405        0.22266656235974    0.00000000000000    0.22266656235974
     1.62987320        0.21954454163196    0.00000000000000    0.21954454163196
     1.63779229        0.21644987997927    0.00000000000000    0.21644987997927
     1.64572127        0.21338265725148    0.00000000000000    0.21338265725148
     1.65366009        0.21034294715376    0.00000000000000    0.21034294715376
     1.66160873        0.20733081665793    0.00000000000000    0.20733081665793
     1.66956714        0.20434632572300    0.00000000000000    0.20434632572300
     1.67753528        0.20138952728943    0.00000000000000    0.20138952728943
     1.68551311        0.19846046742591    0.00000000000000    0.19846046742591
     1.69350060        0.19555918578116    0.00000000000000    0.19555918578116
     1.70149771        0.19268571595126    0.00000000000000    0.19268571595126
     1.70950440        0.18984008593044    0.00000000000000    0.18984008593044
     1.71752062        0.18702231855148    0.00000000000000    0.18702231855148
     1.72554632        0.18423243186671    0.00000000000000    0.18423243186671
     1.73358144        0.18147043940885    0.00000000000000    0.18147043940885
     1.74162593        0.17873635023796    0.00000000000000    0.17873635023796
     1.74967973        0.17603016861086    0.00000000000000    0.17603016861086
     1.75774275        0.17335189296629    0.00000000000000    0.17335189296629
     1.76581494        0.17070151362706    0.00000000000000    0.17070151362706
     1.77389627        0.16807900806898    0.00000000000000    0.16807900806898
     1.78198672        0.16548433191459    0.00000000000000    0.16548433191459
     1.79008642        0.16291740509585    0.00000000000000    0.16291740509585
     1.79819576        0.16037805356178    0.00000000000000    0.16037805356178
     1.80631531        0.15786605120046    0.00000000000000    0.15786605120046
     1.81444498        0.15538137161558    0.00000000000000    0.15538137161558
     1.82258453        0.15292403552835    0.00000000000000    0.15292403552835
     1.83073359        0.15049408859751    0.00000000000000    0.15049408859751
     1.83889172        0.14809158838445    0.00000000000000    0.14809158838445
     1.84705841        0.14571659821212    0.00000000000000    0.14571659821212
